   Simtime [s] 	   Realtime [s]	 Percentage [%]
           3600	      0.0254106	        0.13889
           7200	      0.0338778	        0.27778
          10800	      0.0410338	        0.41667
          14400	      0.0484484	        0.55556
          18000	      0.0632574	        0.69444
          21600	      0.0761222	        0.83333
          25200	      0.0862427	        0.97222
          28800	      0.0947722	         1.1111
          32400	      0.1021465	           1.25
          36000	      0.1093966	         1.3889
          39600	      0.1313698	         1.5278
          43200	      0.1390173	         1.6667
          46800	      0.1478066	         1.8056
          50400	      0.1591165	         1.9444
          54000	      0.1682925	         2.0833
          57600	      0.1764741	         2.2222
          61200	       0.188223	         2.3611
          64800	      0.1994817	            2.5
          68400	      0.2070882	         2.6389
          72000	      0.2189898	         2.7778
          75600	      0.2261351	         2.9167
          79200	      0.2337421	         3.0556
          82800	      0.2446159	         3.1944
          86400	      0.2517207	         3.3333
          90000	      0.2583568	         3.4722
          93600	      0.2658162	         3.6111
          97200	      0.2739129	           3.75
         100800	      0.2813917	         3.8889
         104400	      0.2891799	         4.0278
         108000	      0.2966483	         4.1667
         111600	      0.3040113	         4.3056
         115200	      0.3111977	         4.4444
         118800	      0.3181588	         4.5833
         122400	      0.3267152	         4.7222
         126000	       0.334473	         4.8611
         129600	      0.3428006	              5
         133200	      0.3502116	         5.1389
         136800	      0.3585293	         5.2778
         140400	      0.3662538	         5.4167
         144000	      0.3745191	         5.5556
         147600	      0.3824396	         5.6944
         151200	      0.3924774	         5.8333
         154800	      0.4004545	         5.9722
         158400	      0.4083605	         6.1111
         162000	      0.4159573	           6.25
         165600	      0.4247662	         6.3889
         169200	      0.4434489	         6.5278
         172800	      0.4515004	         6.6667
         176400	      0.4616552	         6.8056
         180000	      0.4695743	         6.9444
         183600	      0.4787439	         7.0833
         187200	      0.4865288	         7.2222
         190800	       0.495525	         7.3611
         194400	      0.5029186	            7.5
         198000	      0.5130759	         7.6389
         201600	      0.5215333	         7.7778
         205200	      0.5298134	         7.9167
         208800	      0.5383145	         8.0556
         212400	      0.5464706	         8.1944
         216000	      0.5564351	         8.3333
         219600	      0.5656079	         8.4722
         223200	      0.5743788	         8.6111
         226800	      0.5826583	           8.75
         230400	      0.5910753	         8.8889
         234000	      0.5989414	         9.0278
         237600	      0.6089079	         9.1667
         241200	      0.6170633	         9.3056
         244800	      0.6266712	         9.4444
         248400	      0.6346627	         9.5833
         252000	      0.6447946	         9.7222
         255600	      0.6529148	         9.8611
         259200	      0.6621122	             10
         262800	       0.669904	         10.139
         266400	      0.6783683	         10.278
         270000	      0.6861618	         10.417
         273600	      0.6965265	         10.556
         277200	      0.7066762	         10.694
         280800	      0.7154997	         10.833
         284400	      0.7236897	         10.972
         288000	      0.7333543	         11.111
         291600	      0.7419157	          11.25
         295200	      0.7601649	         11.389
         298800	       0.768156	         11.528
         302400	      0.7768418	         11.667
         306000	      0.7862349	         11.806
         309600	      0.7950221	         11.944
         313200	      0.8031954	         12.083
         316800	      0.8134453	         12.222
         320400	      0.8213456	         12.361
         324000	      0.8301815	           12.5
         327600	      0.8384245	         12.639
         331200	        0.84622	         12.778
         334800	      0.8542011	         12.917
         338400	      0.8649805	         13.056
         342000	      0.8742111	         13.194
         345600	      0.8822687	         13.333
         349200	      0.8913355	         13.472
         352800	      0.8993139	         13.611
         356400	      0.9076385	          13.75
         360000	      0.9158192	         13.889
         363600	       0.924472	         14.028
         367200	       0.932293	         14.167
         370800	      0.9416204	         14.306
         374400	      0.9496106	         14.444
         378000	      0.9591076	         14.583
         381600	      0.9680258	         14.722
         385200	        0.97573	         14.861
         388800	      0.9838057	             15
         392400	      0.9924965	         15.139
         396000	       1.000926	         15.278
         399600	       1.016832	         15.417
         403200	       1.053383	         15.556
         406800	       1.096722	         15.694
         410400	       1.112824	         15.833
         414000	       1.121925	         15.972
         417600	       1.130247	         16.111
         421200	       1.139332	          16.25
         424800	       1.149096	         16.389
         428400	       1.156901	         16.528
         432000	       1.165723	         16.667
         435600	        1.17333	         16.806
         439200	       1.182149	         16.944
         442800	       1.189579	         17.083
         446400	       1.198628	         17.222
         450000	       1.205872	         17.361
         453600	       1.217131	           17.5
         457200	       1.225017	         17.639
         460800	       1.235601	         17.778
         464400	       1.243077	         17.917
         468000	       1.257337	         18.056
         471600	       1.267807	         18.194
         475200	       1.280883	         18.333
         478800	       1.289728	         18.472
         482400	       1.300224	         18.611
         486000	       1.313309	          18.75
         489600	       1.322037	         18.889
         493200	       1.333055	         19.028
         496800	       1.341567	         19.167
         500400	       1.351558	         19.306
         504000	       1.359492	         19.444
         507600	       1.368781	         19.583
         511200	       1.376152	         19.722
         514800	       1.385517	         19.861
         518400	       1.396203	             20
         522000	       1.414577	         20.139
         525600	       1.422462	         20.278
         529200	       1.431397	         20.417
         532800	       1.439162	         20.556
         536400	       1.448905	         20.694
         540000	       1.456597	         20.833
         543600	        1.46586	         20.972
         547200	       1.473416	         21.111
         550800	       1.482704	          21.25
         554400	       1.491588	         21.389
         558000	       1.499997	         21.528
         561600	       1.509518	         21.667
         565200	       1.517584	         21.806
         568800	       1.525621	         21.944
         572400	       1.546033	         22.083
         576000	       1.566496	         22.222
         579600	        1.58662	         22.361
         583200	       1.612712	           22.5
         586800	       1.622259	         22.639
         590400	       1.631856	         22.778
         594000	       1.641093	         22.917
         597600	       1.649194	         23.056
         601200	       1.658193	         23.194
         604800	       1.666544	         23.333
         608400	       1.674965	         23.472
         612000	       1.682778	         23.611
         615600	       1.692164	          23.75
         619200	       1.699789	         23.889
         622800	       1.716824	         24.028
         626400	       1.725025	         24.167
         630000	       1.733089	         24.306
         633600	       1.742233	         24.444
         637200	       1.750404	         24.583
         640800	       1.759167	         24.722
         644400	       1.767596	         24.861
         648000	       1.776262	             25
         651600	       1.785072	         25.139
         655200	       1.792701	         25.278
         658800	       1.803192	         25.417
         662400	       1.811096	         25.556
         666000	       1.819382	         25.694
         669600	       1.827418	         25.833
         673200	       1.835973	         25.972
         676800	        1.84548	         26.111
         680400	        1.85633	          26.25
         684000	       1.864348	         26.389
         687600	       1.872738	         26.528
         691200	       1.880847	         26.667
         694800	       1.889355	         26.806
         698400	       1.898174	         26.944
         702000	       1.907182	         27.083
         705600	       1.915577	         27.222
         709200	       1.925905	         27.361
         712800	       1.935147	           27.5
         716400	       1.942975	         27.639
         720000	       1.952089	         27.778
         723600	       1.959504	         27.917
         727200	       1.968814	         28.056
         730800	       1.976703	         28.194
         734400	       1.985949	         28.333
         738000	       1.993388	         28.472
         741600	       2.002619	         28.611
         745200	       2.010634	          28.75
         748800	       2.027711	         28.889
         752400	       2.037611	         29.028
         756000	       2.045203	         29.167
         759600	        2.05643	         29.306
         763200	       2.065674	         29.444
         766800	       2.073391	         29.583
         770400	       2.082061	         29.722
         774000	       2.089535	         29.861
         777600	       2.098704	             30
         781200	       2.106592	         30.139
         784800	       2.116396	         30.278
         788400	       2.123953	         30.417
         792000	       2.132995	         30.556
         795600	       2.140809	         30.694
         799200	        2.15002	         30.833
         802800	       2.157803	         30.972
         806400	        2.16809	         31.111
         810000	       2.176007	          31.25
         813600	       2.186594	         31.389
         817200	       2.195725	         31.528
         820800	       2.204426	         31.667
         824400	       2.213436	         31.806
         828000	       2.221207	         31.944
         831600	       2.232117	         32.083
         835200	       2.239643	         32.222
         838800	       2.249617	         32.361
         842400	        2.25787	           32.5
         846000	       2.266983	         32.639
         849600	       2.275818	         32.778
         853200	       2.283242	         32.917
         856800	       2.292542	         33.056
         860400	       2.300962	         33.194
         864000	       2.309941	         33.333
         867600	       2.318102	         33.472
         871200	       2.327574	         33.611
         874800	       2.345347	          33.75
         878400	       2.353325	         33.889
         882000	       2.361965	         34.028
         885600	       2.369203	         34.167
         889200	       2.377242	         34.306
         892800	       2.385525	         34.444
         896400	         2.3946	         34.583
         900000	       2.402355	         34.722
         903600	       2.411596	         34.861
         907200	       2.419049	             35
         910800	          2.427	         35.139
         914400	       2.435422	         35.278
         918000	       2.443987	         35.417
         921600	       2.452165	         35.556
         925200	       2.461836	         35.694
         928800	       2.469674	         35.833
         932400	       2.479466	         35.972
         936000	       2.487186	         36.111
         939600	       2.496408	          36.25
         943200	        2.50391	         36.389
         946800	       2.512738	         36.528
         950400	       2.520418	         36.667
         954000	       2.528934	         36.806
         957600	        2.53727	         36.944
         961200	        2.54659	         37.083
         964800	       2.555912	         37.222
         968400	       2.564547	         37.361
         972000	       2.573597	           37.5
         975600	       2.581803	         37.639
         979200	       2.591368	         37.778
         982800	       2.598772	         37.917
         986400	       2.608031	         38.056
         990000	       2.615866	         38.194
         993600	       2.625552	         38.333
         997200	       2.634068	         38.472
        1000800	       2.651493	         38.611
        1004400	       2.660002	          38.75
        1008000	       2.667765	         38.889
        1011600	       2.676969	         39.028
        1015200	       2.686428	         39.167
        1018800	       2.694813	         39.306
        1022400	       2.703485	         39.444
        1026000	       2.711567	         39.583
        1029600	       2.720241	         39.722
        1033200	       2.727905	         39.861
        1036800	       2.737482	             40
        1040400	       2.745202	         40.139
        1044000	       2.753741	         40.278
        1047600	        2.76241	         40.417
        1051200	       2.770551	         40.556
        1054800	       2.779221	         40.694
        1058400	       2.787703	         40.833
        1062000	       2.795261	         40.972
        1065600	       2.804182	         41.111
        1069200	       2.811761	          41.25
        1072800	       2.821126	         41.389
        1076400	        2.82936	         41.528
        1080000	       2.838656	         41.667
        1083600	       2.846986	         41.806
        1087200	       2.855125	         41.944
        1090800	       2.863243	         42.083
        1094400	        2.87189	         42.222
        1098000	       2.879577	         42.361
        1101600	       2.889508	           42.5
        1105200	       2.898889	         42.639
        1108800	       2.906299	         42.778
        1112400	       2.916209	         42.917
        1116000	       2.924085	         43.056
        1119600	       2.933201	         43.194
        1123200	       2.940975	         43.333
        1126800	       2.949983	         43.472
        1130400	       2.967342	         43.611
        1134000	       2.974738	          43.75
        1137600	       2.983473	         43.889
        1141200	        2.99132	         44.028
        1144800	         3.0005	         44.167
        1148400	       3.008144	         44.306
        1152000	       3.017927	         44.444
        1155600	       3.025292	         44.583
        1159200	       3.035189	         44.722
        1162800	        3.04312	         44.861
        1166400	       3.053176	             45
        1170000	       3.062462	         45.139
        1173600	       3.071599	         45.278
        1177200	        3.08062	         45.417
        1180800	       3.087911	         45.556
        1184400	       3.099357	         45.694
        1188000	       3.110928	         45.833
        1191600	         3.1191	         45.972
        1195200	       3.126977	         46.111
        1198800	       3.136371	          46.25
        1202400	       3.144473	         46.389
        1206000	        3.15254	         46.528
        1209600	       3.161855	         46.667
        1213200	       3.169424	         46.806
        1216800	       3.179098	         46.944
        1220400	       3.186542	         47.083
        1224000	        3.19622	         47.222
        1227600	       3.204047	         47.361
        1231200	       3.213127	           47.5
        1234800	       3.220585	         47.639
        1238400	       3.229279	         47.778
        1242000	       3.236664	         47.917
        1245600	       3.246149	         48.056
        1249200	       3.253858	         48.194
        1252800	       3.263695	         48.333
        1256400	       3.280979	         48.472
        1260000	       3.288921	         48.611
        1263600	       3.299565	          48.75
        1267200	       3.308212	         48.889
        1270800	       3.318731	         49.028
        1274400	       3.329297	         49.167
        1278000	        3.33725	         49.306
        1281600	       3.346825	         49.444
        1285200	       3.354159	         49.583
        1288800	       3.362818	         49.722
        1292400	       3.370432	         49.861
        1296000	       3.379652	             50
        1299600	       3.388824	         50.139
        1303200	       3.397883	         50.278
        1306800	       3.405428	         50.417
        1310400	       3.413928	         50.556
        1314000	       3.421622	         50.694
        1317600	       3.430578	         50.833
        1321200	       3.438419	         50.972
        1324800	       3.448053	         51.111
        1328400	       3.455439	          51.25
        1332000	       3.465103	         51.389
        1335600	       3.472832	         51.528
        1339200	       3.481548	         51.667
        1342800	       3.489326	         51.806
        1346400	        3.49805	         51.944
        1350000	       3.505396	         52.083
        1353600	       3.515568	         52.222
        1357200	       3.525389	         52.361
        1360800	       3.533519	           52.5
        1364400	       3.542677	         52.639
        1368000	       3.550636	         52.778
        1371600	       3.560359	         52.917
        1375200	       3.568216	         53.056
        1378800	       3.576696	         53.194
        1382400	       3.593603	         53.333
        1386000	       3.601254	         53.472
        1389600	       3.610646	         53.611
        1393200	       3.618491	          53.75
        1396800	       3.627588	         53.889
        1400400	       3.637558	         54.028
        1404000	       3.646293	         54.167
        1407600	        3.65492	         54.306
        1411200	       3.662448	         54.444
        1414800	       3.671823	         54.583
        1418400	       3.679998	         54.722
        1422000	       3.689302	         54.861
        1425600	       3.697508	             55
        1429200	          3.706	         55.139
        1432800	       3.714161	         55.278
        1436400	       3.722213	         55.417
        1440000	       3.729851	         55.556
        1443600	       3.738996	         55.694
        1447200	       3.747691	         55.833
        1450800	       3.757121	         55.972
        1454400	       3.766319	         56.111
        1458000	       3.776618	          56.25
        1461600	       3.786116	         56.389
        1465200	       3.793859	         56.528
        1468800	       3.802976	         56.667
        1472400	       3.810593	         56.806
        1476000	       3.819692	         56.944
        1479600	       3.827373	         57.083
        1483200	       3.836889	         57.222
        1486800	       3.845089	         57.361
        1490400	       3.853922	           57.5
        1494000	       3.861904	         57.639
