   Simtime [s] 	   Realtime [s]	 Percentage [%]
           3600	      0.0261553	        0.13889
           7200	      0.0407715	        0.27778
          10800	      0.0494327	        0.41667
          14400	      0.0648347	        0.55556
          18000	      0.0789785	        0.69444
          21600	      0.0904358	        0.83333
          25200	      0.0984288	        0.97222
          28800	      0.1064055	         1.1111
          32400	      0.1189731	           1.25
          36000	      0.1378694	         1.3889
          39600	      0.1520992	         1.5278
          43200	      0.1608245	         1.6667
          46800	      0.1740292	         1.8056
          50400	      0.1821692	         1.9444
          54000	      0.1917253	         2.0833
          57600	      0.2031682	         2.2222
          61200	      0.2109078	         2.3611
          64800	      0.2185488	            2.5
          68400	      0.2302474	         2.6389
          72000	      0.2383127	         2.7778
          75600	      0.2528011	         2.9167
          79200	      0.2607497	         3.0556
          82800	      0.2681333	         3.1944
          86400	      0.2779452	         3.3333
          90000	      0.2861769	         3.4722
          93600	      0.2953292	         3.6111
          97200	      0.3045626	           3.75
         100800	      0.3127469	         3.8889
         104400	      0.3209053	         4.0278
         108000	      0.3283575	         4.1667
         111600	      0.3360778	         4.3056
         115200	      0.3448008	         4.4444
         118800	      0.3533284	         4.5833
         122400	      0.3619481	         4.7222
         126000	      0.3701745	         4.8611
         129600	      0.3790726	              5
         133200	      0.3876798	         5.1389
         136800	      0.3964528	         5.2778
         140400	      0.4045804	         5.4167
         144000	      0.4126646	         5.5556
         147600	       0.421074	         5.6944
         151200	      0.4300616	         5.8333
         154800	      0.4487404	         5.9722
         158400	      0.4634949	         6.1111
         162000	      0.4718928	           6.25
         165600	      0.4800327	         6.3889
         169200	      0.4891622	         6.5278
         172800	      0.4974632	         6.6667
         176400	      0.5079915	         6.8056
         180000	      0.5161016	         6.9444
         183600	      0.5248904	         7.0833
         187200	      0.5334618	         7.2222
         190800	      0.5424062	         7.3611
         194400	      0.5506498	            7.5
         198000	      0.5591476	         7.6389
         201600	      0.5673553	         7.7778
         205200	      0.5756928	         7.9167
         208800	      0.5832369	         8.0556
         212400	      0.5971657	         8.1944
         216000	      0.6069282	         8.3333
         219600	      0.6148728	         8.4722
         223200	      0.6253518	         8.6111
         226800	      0.6346782	           8.75
         230400	      0.6432914	         8.8889
         234000	      0.6527861	         9.0278
         237600	      0.6610406	         9.1667
         241200	      0.6706341	         9.3056
         244800	      0.6787943	         9.4444
         248400	      0.6897044	         9.5833
         252000	      0.6976419	         9.7222
         255600	      0.7081729	         9.8611
         259200	      0.7171674	             10
         262800	      0.7254161	         10.139
         266400	      0.7348804	         10.278
         270000	      0.7427157	         10.417
         273600	      0.7617366	         10.556
         277200	      0.7721606	         10.694
         280800	      0.7801115	         10.833
         284400	      0.7909953	         10.972
         288000	       0.799446	         11.111
         291600	      0.8085769	          11.25
         295200	      0.8174376	         11.389
         298800	      0.8254208	         11.528
         302400	      0.8346878	         11.667
         306000	      0.8423997	         11.806
         309600	      0.8512853	         11.944
         313200	      0.8594092	         12.083
         316800	      0.8691688	         12.222
         320400	      0.8772682	         12.361
         324000	      0.8873164	           12.5
         327600	      0.8949382	         12.639
         331200	      0.9042847	         12.778
         334800	      0.9134158	         12.917
         338400	      0.9214147	         13.056
         342000	      0.9293672	         13.194
         345600	       0.939806	         13.333
         349200	      0.9501646	         13.472
         352800	       0.958742	         13.611
         356400	      0.9894204	          13.75
         360000	      0.9990968	         13.889
         363600	        1.02365	         14.028
         367200	        1.04048	         14.167
         370800	       1.051942	         14.306
         374400	       1.087976	         14.444
         378000	        1.10407	         14.583
         381600	       1.114776	         14.722
         385200	       1.155256	         14.861
         388800	       1.164899	             15
         392400	       1.173395	         15.139
         396000	       1.223165	         15.278
         399600	       1.232372	         15.417
         403200	       1.240579	         15.556
         406800	       1.251077	         15.694
         410400	       1.260581	         15.833
         414000	       1.269319	         15.972
         417600	       1.278406	         16.111
         421200	       1.286956	          16.25
         424800	       1.295711	         16.389
         428400	         1.3048	         16.528
         432000	       1.313939	         16.667
         435600	       1.323774	         16.806
         439200	       1.333216	         16.944
         442800	       1.381759	         17.083
         446400	       1.399354	         17.222
         450000	       1.409399	         17.361
         453600	       1.418008	           17.5
         457200	       1.427567	         17.639
         460800	       1.435667	         17.778
         464400	       1.444516	         17.917
         468000	       1.452717	         18.056
         471600	       1.461621	         18.194
         475200	       1.470866	         18.333
         478800	       1.479096	         18.472
         482400	       1.488148	         18.611
         486000	       1.496065	          18.75
         489600	       1.506023	         18.889
         493200	       1.514897	         19.028
         496800	       1.526706	         19.167
         500400	       1.563741	         19.306
         504000	       1.573289	         19.444
         507600	       1.581954	         19.583
         511200	       1.614318	         19.722
         514800	        1.62299	         19.861
         518400	       1.651742	             20
         522000	       1.661197	         20.139
         525600	       1.671343	         20.278
         529200	         1.6794	         20.417
         532800	       1.688851	         20.556
         536400	       1.696901	         20.694
         540000	       1.713777	         20.833
         543600	       1.722574	         20.972
         547200	       1.730501	         21.111
         550800	       1.740467	          21.25
         554400	       1.748769	         21.389
         558000	       1.789013	         21.528
         561600	        1.79802	         21.667
         565200	       1.808006	         21.806
         568800	       1.816004	         21.944
         572400	       1.826827	         22.083
         576000	       1.835717	         22.222
         579600	       1.855473	         22.361
         583200	       1.867554	           22.5
         586800	       1.878424	         22.639
         590400	       1.889666	         22.778
         594000	       1.897578	         22.917
         597600	       1.909181	         23.056
         601200	       1.919362	         23.194
         604800	       1.928294	         23.333
         608400	       1.937774	         23.472
         612000	       1.945304	         23.611
         615600	       1.955249	          23.75
         619200	       1.963711	         23.889
         622800	        1.97311	         24.028
         626400	       1.981992	         24.167
         630000	       1.993018	         24.306
         633600	       2.001949	         24.444
         637200	       2.010776	         24.583
         640800	       2.028967	         24.722
         644400	         2.0396	         24.861
         648000	       2.047437	             25
         651600	       2.058934	         25.139
         655200	       2.068187	         25.278
         658800	        2.07659	         25.417
         662400	       2.086125	         25.556
         666000	       2.094119	         25.694
         669600	       2.103089	         25.833
         673200	       2.111232	         25.972
         676800	        2.13976	         26.111
         680400	       2.147897	          26.25
         684000	       2.158228	         26.389
         687600	       2.166596	         26.528
         691200	        2.17589	         26.667
         694800	       2.185042	         26.806
         698400	       2.193032	         26.944
         702000	       2.202815	         27.083
         705600	       2.210807	         27.222
         709200	       2.220432	         27.361
         712800	       2.228175	           27.5
         716400	       2.238704	         27.639
         720000	       2.247694	         27.778
         723600	       2.256677	         27.917
         727200	       2.264178	         28.056
         730800	       2.280172	         28.194
         734400	       2.291639	         28.333
         738000	       2.311984	         28.472
         741600	        2.32206	         28.611
         745200	       2.343162	          28.75
         748800	        2.35292	         28.889
         752400	       2.362045	         29.028
         756000	       2.372268	         29.167
         759600	       2.382174	         29.306
         763200	       2.390426	         29.444
         766800	       2.399187	         29.583
         770400	       2.407702	         29.722
         774000	       2.416979	         29.861
         777600	       2.425857	             30
         781200	       2.440946	         30.139
         784800	       2.462952	         30.278
         788400	         2.4722	         30.417
         792000	       2.484264	         30.556
         795600	       2.494486	         30.694
         799200	       2.514269	         30.833
         802800	       2.525319	         30.972
         806400	       2.533139	         31.111
         810000	       2.542866	          31.25
         813600	       2.551859	         31.389
         817200	       2.560426	         31.528
         820800	       2.570388	         31.667
         824400	       2.578417	         31.806
         828000	       2.586908	         31.944
         831600	       2.596135	         32.083
         835200	       2.632685	         32.222
         838800	       2.641795	         32.361
         842400	       2.660326	           32.5
         846000	        2.67656	         32.639
         849600	       2.685366	         32.778
         853200	       2.694429	         32.917
         856800	       2.703631	         33.056
         860400	       2.713296	         33.194
         864000	        2.72238	         33.333
         867600	       2.730381	         33.472
         871200	       2.739864	         33.611
         874800	       2.749748	          33.75
         878400	       2.758828	         33.889
         882000	       2.766402	         34.028
         885600	       2.775355	         34.167
         889200	       2.783386	         34.306
         892800	       2.793189	         34.444
         896400	       2.802911	         34.583
         900000	       2.812368	         34.722
         903600	       2.822618	         34.861
         907200	       2.830635	             35
         910800	       2.840456	         35.139
         914400	       2.848371	         35.278
         918000	       2.858885	         35.417
         921600	       2.867359	         35.556
         925200	       2.876643	         35.694
         928800	       2.885707	         35.833
         932400	        2.89339	         35.972
         936000	       2.904052	         36.111
         939600	       2.911994	          36.25
         943200	       2.922386	         36.389
         946800	         2.9322	         36.528
         950400	       2.957167	         36.667
         954000	       2.975666	         36.806
         957600	       2.986541	         36.944
         961200	       3.051029	         37.083
         964800	       3.060628	         37.222
         968400	       3.073923	         37.361
         972000	       3.083997	           37.5
         975600	       3.094241	         37.639
         979200	       3.104661	         37.778
         982800	       3.113067	         37.917
         986400	       3.121232	         38.056
         990000	       3.130643	         38.194
         993600	        3.13898	         38.333
         997200	        3.14839	         38.472
        1000800	        3.15652	         38.611
        1004400	       3.165231	          38.75
        1008000	         3.1734	         38.889
        1011600	       3.181851	         39.028
        1015200	       3.189886	         39.167
        1018800	       3.199079	         39.306
        1022400	       3.207099	         39.444
        1026000	       3.216226	         39.583
        1029600	       3.224784	         39.722
        1033200	       3.233063	         39.861
        1036800	       3.241565	             40
        1040400	       3.250264	         40.139
        1044000	       3.259319	         40.278
        1047600	        3.26939	         40.417
        1051200	       3.288104	         40.556
        1054800	       3.297665	         40.694
        1058400	       3.306126	         40.833
        1062000	       3.315634	         40.972
        1065600	       3.323578	         41.111
        1069200	       3.331873	          41.25
        1072800	       3.340128	         41.389
        1076400	        3.34899	         41.528
        1080000	       3.357539	         41.667
        1083600	       3.367582	         41.806
        1087200	       3.376101	         41.944
        1090800	       3.385376	         42.083
        1094400	        3.39352	         42.222
        1098000	       3.402177	         42.361
        1101600	       3.409913	           42.5
        1105200	       3.420151	         42.639
        1108800	       3.428193	         42.778
        1112400	       3.437957	         42.917
        1116000	        3.44614	         43.056
        1119600	       3.455092	         43.194
        1123200	       3.464215	         43.333
        1126800	       3.472714	         43.472
        1130400	       3.482289	         43.611
        1134000	       3.490455	          43.75
        1137600	       3.500013	         43.889
        1141200	       3.508216	         44.028
        1144800	       3.517292	         44.167
        1148400	       3.525715	         44.306
        1152000	       3.535674	         44.444
        1155600	       3.544164	         44.583
        1159200	       3.553107	         44.722
        1162800	       3.561744	         44.861
        1166400	       3.569743	             45
        1170000	       3.579063	         45.139
        1173600	       3.587417	         45.278
        1177200	       3.605663	         45.417
        1180800	       3.615678	         45.556
        1184400	       3.623609	         45.694
        1188000	       3.633619	         45.833
        1191600	       3.642776	         45.972
        1195200	       3.650866	         46.111
        1198800	       3.660647	          46.25
        1202400	        3.66852	         46.389
        1206000	        3.67771	         46.528
        1209600	       3.685948	         46.667
        1213200	       3.694561	         46.806
        1216800	       3.710033	         46.944
        1220400	        3.71834	         47.083
        1224000	       3.728202	         47.222
        1227600	       3.736315	         47.361
        1231200	       3.746269	           47.5
        1234800	       3.754987	         47.639
        1238400	       3.764184	         47.778
        1242000	       3.773337	         47.917
        1245600	       3.781519	         48.056
        1249200	       3.790601	         48.194
        1252800	       3.798672	         48.333
        1256400	       3.809884	         48.472
        1260000	        3.81906	         48.611
        1263600	       3.828742	          48.75
        1267200	         3.8397	         48.889
        1270800	       3.848053	         49.028
        1274400	       3.858128	         49.167
        1278000	       3.866362	         49.306
        1281600	       3.876999	         49.444
        1285200	       3.886762	         49.583
        1288800	       3.895015	         49.722
        1292400	       3.915772	         49.861
        1296000	       3.926048	             50
        1299600	       3.934153	         50.139
        1303200	       3.942667	         50.278
        1306800	       3.951235	         50.417
        1310400	       3.958995	         50.556
        1314000	       3.968043	         50.694
        1317600	       3.976983	         50.833
        1321200	       3.987879	         50.972
        1324800	       3.996655	         51.111
        1328400	        4.00705	          51.25
        1332000	       4.015624	         51.389
        1335600	        4.05077	         51.528
        1339200	       4.059338	         51.667
        1342800	       4.068565	         51.806
        1346400	       4.077008	         51.944
        1350000	       4.086034	         52.083
        1353600	       4.093962	         52.222
        1357200	       4.103587	         52.361
        1360800	       4.116093	           52.5
        1364400	       4.125067	         52.639
        1368000	       4.136204	         52.778
        1371600	       4.144643	         52.917
        1375200	       4.156535	         53.056
        1378800	       4.165326	         53.194
        1382400	       4.173634	         53.333
        1386000	       4.181973	         53.472
        1389600	       4.190292	         53.611
        1393200	       4.199739	          53.75
        1396800	       4.207721	         53.889
        1400400	       4.225575	         54.028
        1404000	       4.234173	         54.167
        1407600	       4.242527	         54.306
        1411200	       4.542492	         54.444
        1414800	        4.55154	         54.583
        1418400	       4.559842	         54.722
        1422000	       4.569127	         54.861
        1425600	       4.578081	             55
        1429200	       4.585938	         55.139
        1432800	       4.593683	         55.278
        1436400	       4.602916	         55.417
        1440000	       4.611278	         55.556
        1443600	       4.621033	         55.694
        1447200	       4.629742	         55.833
        1450800	       4.638676	         55.972
        1454400	       4.648236	         56.111
        1458000	       4.656466	          56.25
        1461600	       4.666228	         56.389
        1465200	       4.675732	         56.528
        1468800	       4.684141	         56.667
        1472400	       4.692513	         56.806
        1476000	       4.701699	         56.944
        1479600	       4.712653	         57.083
        1483200	       4.721044	         57.222
        1486800	       4.730735	         57.361
        1490400	       4.739503	           57.5
        1494000	       4.748589	         57.639
