   Simtime [s] 	   Realtime [s]	 Percentage [%]
           3600	      0.0240748	        0.13889
           7200	      0.0381768	        0.27778
          10800	      0.0459269	        0.41667
          14400	      0.0538087	        0.55556
          18000	      0.0609259	        0.69444
          21600	      0.0693753	        0.83333
          25200	      0.0778625	        0.97222
          28800	      0.0930565	         1.1111
          32400	      0.1013554	           1.25
          36000	      0.1096085	         1.3889
          39600	      0.1215788	         1.5278
          43200	      0.1430392	         1.6667
          46800	      0.1512556	         1.8056
          50400	      0.1626411	         1.9444
          54000	      0.1756856	         2.0833
          57600	      0.1845009	         2.2222
          61200	      0.1922259	         2.3611
          64800	      0.1994271	            2.5
          68400	      0.2102253	         2.6389
          72000	      0.2176459	         2.7778
          75600	      0.2255431	         2.9167
          79200	      0.2335453	         3.0556
          82800	      0.2406951	         3.1944
          86400	      0.2484419	         3.3333
          90000	      0.2582833	         3.4722
          93600	      0.2681979	         3.6111
          97200	      0.2759557	           3.75
         100800	      0.2846012	         3.8889
         104400	      0.2919037	         4.0278
         108000	      0.2998049	         4.1667
         111600	      0.3071758	         4.3056
         115200	      0.3145807	         4.4444
         118800	      0.3216382	         4.5833
         122400	      0.3314853	         4.7222
         126000	      0.3389991	         4.8611
         129600	      0.3482395	              5
         133200	      0.3560881	         5.1389
         136800	      0.3635366	         5.2778
         140400	      0.3711955	         5.4167
         144000	      0.3792335	         5.5556
         147600	      0.3872414	         5.6944
         151200	       0.395688	         5.8333
         154800	      0.4044238	         5.9722
         158400	      0.4128306	         6.1111
         162000	      0.4214443	           6.25
         165600	      0.4308356	         6.3889
         169200	      0.4385169	         6.5278
         172800	      0.4557052	         6.6667
         176400	      0.4653611	         6.8056
         180000	      0.4729848	         6.9444
         183600	      0.4821314	         7.0833
         187200	      0.4895149	         7.2222
         190800	      0.4990391	         7.3611
         194400	      0.5067557	            7.5
         198000	      0.5159501	         7.6389
         201600	      0.5246173	         7.7778
         205200	      0.5339725	         7.9167
         208800	      0.5436816	         8.0556
         212400	      0.5534164	         8.1944
         216000	       0.562856	         8.3333
         219600	      0.5709554	         8.4722
         223200	      0.5811123	         8.6111
         226800	      0.5887539	           8.75
         230400	      0.5990123	         8.8889
         234000	      0.6070547	         9.0278
         237600	      0.6158874	         9.1667
         241200	      0.6254807	         9.3056
         244800	      0.6341511	         9.4444
         248400	      0.6435386	         9.5833
         252000	      0.6513138	         9.7222
         255600	      0.6604887	         9.8611
         259200	      0.6686248	             10
         262800	      0.6779874	         10.139
         266400	      0.6857098	         10.278
         270000	      0.6953566	         10.417
         273600	      0.7038505	         10.556
         277200	      0.7121117	         10.694
         280800	      0.7201228	         10.833
         284400	      0.7284935	         10.972
         288000	      0.7368035	         11.111
         291600	      0.7461063	          11.25
         295200	      0.7537671	         11.389
         298800	      0.7737324	         11.528
         302400	       0.782305	         11.667
         306000	      0.7907015	         11.806
         309600	       0.799202	         11.944
         313200	      0.8076969	         12.083
         316800	      0.8153855	         12.222
         320400	      0.8249531	         12.361
         324000	          0.833	           12.5
         327600	      0.8422816	         12.639
         331200	      0.8502366	         12.778
         334800	      0.8583142	         12.917
         338400	       0.866486	         13.056
         342000	      0.8748705	         13.194
         345600	      0.8831319	         13.333
         349200	      0.8922936	         13.472
         352800	      0.9001542	         13.611
         356400	      0.9091254	          13.75
         360000	      0.9171502	         13.889
         363600	      0.9263706	         14.028
         367200	      0.9345293	         14.167
         370800	      0.9442593	         14.306
         374400	      0.9521188	         14.444
         378000	      0.9607089	         14.583
         381600	      0.9683718	         14.722
         385200	      0.9771612	         14.861
         388800	       0.984434	             15
         392400	      0.9937725	         15.139
         396000	       1.001408	         15.278
         399600	       1.010936	         15.417
         403200	       1.019749	         15.556
         406800	        1.02757	         15.694
         410400	        1.03627	         15.833
         414000	       1.045706	         15.972
         417600	       1.094036	         16.111
         421200	        1.10875	          16.25
         424800	        1.13253	         16.389
         428400	       1.154337	         16.528
         432000	       1.162528	         16.667
         435600	       1.171822	         16.806
         439200	       1.179319	         16.944
         442800	       1.189058	         17.083
         446400	       1.197013	         17.222
         450000	       1.207793	         17.361
         453600	        1.21751	           17.5
         457200	       1.225326	         17.639
         460800	       1.234484	         17.778
         464400	       1.243434	         17.917
         468000	       1.253406	         18.056
         471600	       1.261233	         18.194
         475200	       1.270479	         18.333
         478800	       1.277975	         18.472
         482400	       1.286802	         18.611
         486000	       1.295205	          18.75
         489600	       1.302737	         18.889
         493200	       1.310449	         19.028
         496800	       1.319165	         19.167
         500400	       1.328034	         19.306
         504000	       1.338338	         19.444
         507600	        1.34807	         19.583
         511200	       1.356493	         19.722
         514800	       1.366203	         19.861
         518400	       1.373641	             20
         522000	       1.382663	         20.139
         525600	       1.390792	         20.278
         529200	       1.409049	         20.417
         532800	       1.418372	         20.556
         536400	       1.426056	         20.694
         540000	       1.436524	         20.833
         543600	       1.444346	         20.972
         547200	       1.454016	         21.111
         550800	       1.462788	          21.25
         554400	        1.47096	         21.389
         558000	       1.478339	         21.528
         561600	         1.4874	         21.667
         565200	       1.494622	         21.806
         568800	       1.503954	         21.944
         572400	       1.511229	         22.083
         576000	       1.522072	         22.222
         579600	       1.532585	         22.361
         583200	       1.540726	           22.5
         586800	       1.550281	         22.639
         590400	       1.558333	         22.778
         594000	       1.568408	         22.917
         597600	       1.576061	         23.056
         601200	       1.585462	         23.194
         604800	        1.59319	         23.333
         608400	        1.60334	         23.472
         612000	       1.611042	         23.611
         615600	       1.620374	          23.75
         619200	       1.627683	         23.889
         622800	       1.638228	         24.028
         626400	       1.653225	         24.167
         630000	       1.661368	         24.306
         633600	       1.671614	         24.444
         637200	       1.679781	         24.583
         640800	       1.688193	         24.722
         644400	       1.696369	         24.861
         648000	       1.704663	             25
         651600	       1.722922	         25.139
         655200	       1.732168	         25.278
         658800	       1.739436	         25.417
         662400	       1.748539	         25.556
         666000	       1.756125	         25.694
         669600	       1.766352	         25.833
         673200	       1.781665	         25.972
         676800	       1.789018	         26.111
         680400	       1.798243	          26.25
         684000	        1.80581	         26.389
         687600	       1.813683	         26.528
         691200	       1.821597	         26.667
         694800	       1.830489	         26.806
         698400	       1.838047	         26.944
         702000	       1.846834	         27.083
         705600	       1.855036	         27.222
         709200	       1.863169	         27.361
         712800	        1.87174	           27.5
         716400	       1.880108	         27.639
         720000	       1.887848	         27.778
         723600	       1.896904	         27.917
         727200	       1.905039	         28.056
         730800	       1.914313	         28.194
         734400	       1.922666	         28.333
         738000	        1.93285	         28.472
         741600	       1.941086	         28.611
         745200	       1.949083	          28.75
         748800	       1.956994	         28.889
         752400	       1.964688	         29.028
         756000	       1.973522	         29.167
         759600	       1.981623	         29.306
         763200	       1.990851	         29.444
         766800	       1.998564	         29.583
         770400	       2.007584	         29.722
         774000	       2.015554	         29.861
         777600	       2.032195	             30
         781200	       2.040339	         30.139
         784800	       2.047655	         30.278
         788400	       2.058765	         30.417
         792000	       2.067821	         30.556
         795600	       2.077188	         30.694
         799200	       2.087739	         30.833
         802800	       2.096093	         30.972
         806400	       2.105658	         31.111
         810000	       2.113463	          31.25
         813600	       2.122934	         31.389
         817200	       2.131219	         31.528
         820800	       2.139548	         31.667
         824400	       2.147616	         31.806
         828000	       2.156386	         31.944
         831600	       2.163811	         32.083
         835200	       2.173516	         32.222
         838800	       2.181239	         32.361
         842400	       2.190344	           32.5
         846000	       2.198278	         32.639
         849600	       2.207533	         32.778
         853200	       2.215511	         32.917
         856800	       2.223421	         33.056
         860400	       2.231703	         33.194
         864000	       2.240402	         33.333
         867600	       2.247688	         33.472
         871200	       2.257394	         33.611
         874800	       2.265375	          33.75
         878400	       2.274262	         33.889
         882000	       2.282741	         34.028
         885600	       2.290823	         34.167
         889200	       2.299086	         34.306
         892800	       2.307263	         34.444
         896400	       2.315411	         34.583
         900000	       2.325353	         34.722
         903600	       2.344929	         34.861
         907200	       2.354645	             35
         910800	       2.362191	         35.139
         914400	       2.371709	         35.278
         918000	       2.379324	         35.417
         921600	       2.388299	         35.556
         925200	       2.395947	         35.694
         928800	       2.404548	         35.833
         932400	       2.412105	         35.972
         936000	       2.421402	         36.111
         939600	       2.429118	          36.25
         943200	       2.437578	         36.389
         946800	       2.445057	         36.528
         950400	       2.453783	         36.667
         954000	       2.461398	         36.806
         957600	       2.471385	         36.944
         961200	       2.479203	         37.083
         964800	         2.4886	         37.222
         968400	       2.496305	         37.361
         972000	       2.505699	           37.5
         975600	       2.513154	         37.639
         979200	       2.521644	         37.778
         982800	       2.529077	         37.917
         986400	       2.537586	         38.056
         990000	       2.544871	         38.194
         993600	       2.552458	         38.333
         997200	       2.561426	         38.472
        1000800	        2.57143	         38.611
        1004400	       2.579202	          38.75
        1008000	       2.588987	         38.889
        1011600	       2.596673	         39.028
        1015200	       2.605132	         39.167
        1018800	       2.612647	         39.306
        1022400	       2.621635	         39.444
        1026000	       2.629205	         39.583
        1029600	       2.638299	         39.722
        1033200	       2.655378	         39.861
        1036800	       2.663077	             40
        1040400	       2.672297	         40.139
        1044000	       2.679611	         40.278
        1047600	        2.68798	         40.417
        1051200	       2.695938	         40.556
        1054800	       2.704909	         40.694
        1058400	       2.712375	         40.833
        1062000	       2.721912	         40.972
        1065600	       2.729949	         41.111
        1069200	       2.738273	          41.25
        1072800	       2.746551	         41.389
        1076400	       2.755962	         41.528
        1080000	        2.76314	         41.667
        1083600	       2.772842	         41.806
        1087200	       2.780679	         41.944
        1090800	       2.790448	         42.083
        1094400	       2.798934	         42.222
        1098000	       2.808927	         42.361
        1101600	       2.818115	           42.5
        1105200	       2.826302	         42.639
        1108800	       2.835446	         42.778
        1112400	       2.842771	         42.917
        1116000	        2.85289	         43.056
        1119600	       2.860428	         43.194
        1123200	       2.861954	         43.333
        1126800	       2.871279	         43.472
        1130400	       2.879283	         43.611
        1134000	       2.887798	          43.75
        1137600	       2.895895	         43.889
        1141200	       2.903521	         44.028
        1144800	       2.912319	         44.167
        1148400	       2.920549	         44.306
        1152000	       2.929591	         44.444
        1155600	       2.937686	         44.583
        1159200	       2.946928	         44.722
        1162800	       2.954951	         44.861
        1166400	       2.971587	             45
        1170000	       2.979863	         45.139
        1173600	       2.987988	         45.278
        1177200	       2.997533	         45.417
        1180800	       3.005279	         45.556
        1184400	        3.01473	         45.694
        1188000	       3.022951	         45.833
        1191600	       3.032998	         45.972
        1195200	       3.040492	         46.111
        1198800	       3.051059	          46.25
        1202400	       3.059009	         46.389
        1206000	        3.06888	         46.528
        1209600	       3.076707	         46.667
        1213200	       3.085143	         46.806
        1216800	       3.093657	         46.944
        1220400	       3.101276	         47.083
        1224000	       3.108691	         47.222
        1227600	       3.118118	         47.361
        1231200	        3.12596	           47.5
        1234800	       3.136313	         47.639
        1238400	       3.146171	         47.778
        1242000	       3.154149	         47.917
        1245600	       3.162501	         48.056
        1249200	       3.170808	         48.194
        1252800	       3.179154	         48.333
        1256400	       3.186947	         48.472
        1260000	       3.196562	         48.611
        1263600	       3.204791	          48.75
        1267200	       3.213812	         48.889
        1270800	       3.221994	         49.028
        1274400	       3.231782	         49.167
        1278000	        3.23978	         49.306
        1281600	       3.250109	         49.444
        1285200	       3.257695	         49.583
        1288800	       3.275223	         49.722
        1292400	       3.284528	         49.861
        1296000	        3.29242	             50
        1299600	       3.302133	         50.139
        1303200	       3.310222	         50.278
        1306800	       3.319182	         50.417
        1310400	       3.328073	         50.556
        1314000	         3.3363	         50.694
        1317600	       3.345255	         50.833
        1321200	       3.353326	         50.972
        1324800	       3.361416	         51.111
        1328400	       3.369697	          51.25
        1332000	        3.37774	         51.389
        1335600	       3.385691	         51.528
        1339200	       3.395336	         51.667
        1342800	       3.403423	         51.806
        1346400	       3.412843	         51.944
        1350000	       3.420924	         52.083
        1353600	        3.42929	         52.222
        1357200	       3.437152	         52.361
        1360800	       3.445715	           52.5
        1364400	       3.453963	         52.639
        1368000	       3.463038	         52.778
        1371600	       3.471349	         52.917
        1375200	       3.480286	         53.056
        1378800	       3.488335	         53.194
        1382400	       3.497791	         53.333
        1386000	       3.505571	         53.472
        1389600	       3.514141	         53.611
        1393200	       3.522155	          53.75
        1396800	       3.530562	         53.889
        1400400	       3.538652	         54.028
        1404000	       3.547527	         54.167
        1407600	       3.556803	         54.306
        1411200	       3.565727	         54.444
        1414800	       3.584781	         54.583
        1418400	       3.594682	         54.722
        1422000	        3.60237	         54.861
        1425600	       3.612538	             55
        1429200	       3.620347	         55.139
        1432800	       3.627909	         55.278
        1436400	        3.63676	         55.417
        1440000	       3.644469	         55.556
        1443600	       3.653626	         55.694
        1447200	       3.661692	         55.833
        1450800	       3.671029	         55.972
        1454400	       3.679009	         56.111
        1458000	       3.688644	          56.25
        1461600	        3.69641	         56.389
        1465200	       3.705182	         56.528
        1468800	       3.713016	         56.667
        1472400	       3.721792	         56.806
        1476000	       3.729471	         56.944
        1479600	       3.738585	         57.083
        1483200	       3.746046	         57.222
        1486800	       3.755209	         57.361
        1490400	       3.762813	           57.5
        1494000	        3.77243	         57.639
